freq	unwrap(phase(S(1,2))) - unwrap(phase(S(3,1))) 
1.44999999999999996E9	4.06124614918175553E1
1.45999999999999996E9	4.13188557164630943E1
1.46999999999999997E9	4.20358811809186328E1
1.47999999999999998E9	4.27634260958667056E1
1.48999999999999999E9	4.35013510194258934E1
1.50000000000000000E9	4.42494876139357984E1
1.51000000000000001E9	4.50076370042880836E1
1.52000000000000002E9	4.57755686668391526E1
1.53000000000000003E9	4.65530191849821229E1
1.54000000000000004E9	4.73396911647366814E1
1.55000000000000004E9	4.81352522855180887E1
1.56000000000000005E9	4.89393345071088071E1
1.56999999999999984E9	4.97515334538207288E1
1.58000000000000007E9	5.05714079964163243E1
1.59000000000000008E9	5.13984800515078888E1
1.60000000000000009E9	5.22322346168420371E1
1.61000000000000010E9	5.30721200591044617E1
1.61999999999999988E9	5.39175486685987515E1
1.63000000000000012E9	5.47678974924231632E1
1.63999999999999990E9	5.56225094545586529E1
1.64999999999999991E9	5.64806947676829640E1
1.66000000000000014E9	5.73417326375410319E1
1.66999999999999993E9	5.82048732564664117E1
1.68000000000000016E9	5.90693400781919831E1
1.68999999999999995E9	5.99343323615600365E1
1.69999999999999996E9	6.07990279662304101E1
1.71000000000000019E9	6.16625863791059015E1
1.71999999999999997E9	6.25241519461108908E1
1.72999999999999998E9	6.33828572802260037E1
1.73999999999999977E9	6.42378268134563335E1
1.75000000000000000E9	6.50881804578079404E1
1.76000000000000023E9	6.59330373383837554E1
1.77000000000000002E9	6.67715195605100753E1
1.78000000000000003E9	6.76027559723878557E1
1.78999999999999981E9	6.84258858851323915E1
1.80000000000000004E9	6.92400627131948720E1
1.81000000000000005E9	7.00444575000768843E1
1.81999999999999984E9	7.08382622967791775E1
1.83000000000000007E9	7.16206933636122045E1
1.83999999999999986E9	7.23909941696225001E1
1.85000000000000009E9	7.31484381679300100E1
1.86000000000000010E9	7.38923313295519790E1
1.86999999999999988E9	7.46220144227050231E1
1.88000000000000012E9	7.53368650290343300E1
1.88999999999999990E9	7.60362992925072501E1
1.89999999999999991E9	7.67197734008916399E1
1.91000000000000014E9	7.73867848035269645E1
1.91999999999999993E9	7.80368731725858122E1
1.93000000000000016E9	7.86696211180435778E1
1.93999999999999995E9	7.92846546691435616E1
1.94999999999999996E9	7.98816435372333977E1
1.96000000000000019E9	8.04603011763915887E1
1.96999999999999997E9	8.10203846593918264E1
1.97999999999999998E9	8.15616943871281208E1
1.98999999999999977E9	8.20840736498447576E1
2.00000000000000000E9	8.25874080582420689E1
2.01000000000000023E9	8.30716248620214870E1
2.02000000000000002E9	8.35366921724913425E1
2.03000000000000025E9	8.39826181047986076E1
2.04000000000000004E9	8.44094498539672955E1
2.04999999999999982E9	8.48172727175073504E1
2.06000000000000005E9	8.52062090757591228E1
2.06999999999999984E9	8.55764173395498418E1
2.08000000000000007E9	8.59280908730895199E1
2.08999999999999986E9	8.62614568984598584E1
2.10000000000000009E9	8.65767753865049272E1
2.11000000000000032E9	8.68743379374847891E1
2.12000000000000011E9	8.71544666535550405E1
2.12999999999999989E9	8.74175130038902637E1
2.13999999999999968E9	8.76638566822813559E1
2.14999999999999991E9	8.78939044561070304E1
2.16000000000000014E9	8.81080890049029364E1
2.16999999999999993E9	8.83068677461732321E1
2.18000000000000016E9	8.84907216457513357E1
2.18999999999999995E9	8.86601540097906593E1
2.20000000000000018E9	8.88156892554476407E1
2.20999999999999996E9	8.89578716574333406E1
2.21999999999999975E9	8.90872640678720984E1
2.22999999999999998E9	8.92044466073113540E1
2.23999999999999977E9	8.93100153252446560E1
2.25000000000000000E9	8.94045808291194888E1
2.26000000000000023E9	8.94887668815077042E1
2.27000000000000002E9	8.95632089658873198E1
2.28000000000000025E9	8.96285528222750294E1
2.29000000000000004E9	8.96854529547862001E1
2.29999999999999982E9	8.97345711140416924E1
2.31000000000000005E9	8.97765747581307494E1
2.31999999999999984E9	8.98121354966265883E1
2.33000000000000007E9	8.98419275228461700E1
2.33999999999999986E9	8.98666260402303507E1
2.35000000000000009E9	8.98869056892009155E1
2.36000000000000032E9	8.99034389813690993E1
2.37000000000000011E9	8.99168947482597147E1
2.37999999999999989E9	8.99279366119489865E1
2.38999999999999968E9	8.99372214851047680E1
2.39999999999999991E9	8.99453981078963594E1
2.41000000000000014E9	8.99531056290604702E1
2.41999999999999993E9	8.99609722381738131E1
2.43000000000000016E9	8.99696138557657754E1
2.43999999999999995E9	8.99796328874632323E1
2.45000000000000018E9	8.99916170477313848E1
2.45999999999999996E9	9.00061382582002878E1
2.46999999999999975E9	9.00237516247832481E1
2.47999999999999998E9	9.00449944971152760E1
2.48999999999999977E9	9.00703856129959135E1
2.50000000000000000E9	9.01004243297754748E1
2.51000000000000023E9	9.01355899437959351E1
2.52000000000000002E9	9.01763410982529123E1
2.53000000000000025E9	9.02231152790643876E1
2.54000000000000004E9	9.02763283976571529E1
2.54999999999999982E9	9.03363744589093720E1
2.56000000000000005E9	9.04036253118918331E1
2.56999999999999984E9	9.04784304805280826E1
2.58000000000000007E9	9.05611171619086086E1
2.58999999999999986E9	9.06519898420002690E1
2.60000000000000009E9	9.07513308910282390E1
2.61000000000000032E9	9.08594003124654037E1
2.62000000000000011E9	9.09764360075021195E1
2.62999999999999989E9	9.11026540038931998E1
2.63999999999999968E9	9.12382487356865113E1
2.64999999999999991E9	9.13833933692237643E1
2.66000000000000014E9	9.15382401709306848E1
2.66999999999999993E9	9.17029209124925515E1
2.68000000000000016E9	9.18775473091866601E1
2.68999999999999995E9	9.20622114873397912E1
2.70000000000000018E9	9.22569864770854409E1
2.70999999999999996E9	9.24619267268554346E1
2.71999999999999975E9	9.26770686362790386E1
2.72999999999999998E9	9.29024311044430462E1
2.73999999999999977E9	9.31380160907120569E1
2.75000000000000000E9	9.33838091856154939E1
2.76000000000000023E9	9.36397801895178894E1
2.77000000000000002E9	9.39058836971007338E1
2.78000000000000025E9	9.41820596858724990E1
2.79000000000000004E9	9.44682341071892573E1
2.79999999999999982E9	9.47643194784597220E1
2.81000000000000005E9	9.50702154754097606E1
2.81999999999999984E9	9.53858095234442338E1
2.83000000000000007E9	9.57109773873099456E1
2.83999999999999986E9	9.60455837583897321E1
2.85000000000000009E9	9.63894828390622571E1
2.86000000000000032E9	9.67425189236782401E1
2.87000000000000011E9	9.71045269757442142E1
2.87999999999999989E9	9.74753332009979978E1
2.88999999999999968E9	9.78547556160639331E1
2.89999999999999991E9	9.82426046124304619E1
2.91000000000000014E9	9.86386835154760888E1
2.91999999999999993E9	9.90427891382874748E1
2.93000000000000016E9	9.94547122844426568E1
2.93999999999999995E9	9.98742384727289334E1
2.95000000000000018E9	1.00301148200298362E2
2.95999999999999996E9	1.00735217654787279E2
2.96999999999999975E9	1.01176219191828154E2
2.97999999999999998E9	1.01623921850781729E2
2.98999999999999977E9	1.02078091862662435E2
3.00000000000000000E9	1.02538493149731891E2
3.01000000000000023E9	1.03004887816195456E2
3.02000000000000002E9	1.03477036629423358E2
3.03000000000000025E9	1.03954699491053759E2
3.04000000000000004E9	1.04437635897341186E2
3.04999999999999982E9	1.04925605433627278E2
3.06000000000000005E9	1.05418368028994003E2
3.06999999999999984E9	1.05915684653577769E2
3.08000000000000007E9	1.06417317546993928E2
3.08999999999999986E9	1.06923030660364882E2
3.10000000000000009E9	1.07432590038045395E2
3.11000000000000032E9	1.07945764183976189E2
3.12000000000000011E9	1.08462324412082189E2
3.12999999999999989E9	1.08982045180173048E2
3.13999999999999968E9	1.09504704406861664E2
3.14999999999999991E9	1.10030083771051013E2
3.16000000000000014E9	1.10557968993621603E2
3.16999999999999993E9	1.11088150100991734E2
3.18000000000000016E9	1.11620421670303172E2
3.18999999999999995E9	1.12154583056054546E2
3.20000000000000018E9	1.12690438598063403E2
3.20999999999999996E9	1.13227797810723985E2
3.22000000000000020E9	1.13766475553588009E2
3.22999999999999954E9	1.14306292183377600E2
3.23999999999999977E9	1.14847073687600787E2
3.25000000000000000E9	1.15388651800011188E2
3.26000000000000023E9	1.15930864098224040E2
3.27000000000000046E9	1.16473554083851916E2
3.27999999999999980E9	1.17016571245592038E2
3.29000000000000004E9	1.17559771105747712E2
3.29999999999999982E9	1.18103015250710253E2
3.31000000000000005E9	1.18646171345983586E2
3.32000000000000028E9	1.19189113136365710E2
3.32999999999999963E9	1.19731720431933342E2
3.33999999999999986E9	1.20273879080513924E2
3.35000000000000009E9	1.20815480927346686E2
3.36000000000000032E9	1.21356423762652410E2
3.37000000000000011E9	1.21896611257850451E2
3.37999999999999989E9	1.22435952891164623E2
3.38999999999999968E9	1.22974363863365665E2
3.39999999999999991E9	1.23511765004397800E2
3.41000000000000014E9	1.24048082671630167E2
3.42000000000000037E9	1.24583248640468125E2
3.42999999999999972E9	1.25117199988040673E2
3.43999999999999995E9	1.25649878970674012E2
3.45000000000000018E9	1.26181232895830209E2


